Time(ms),MCB1,MCB2,DATA1,DATA2
0.0,-0.1647058823529406,0.1647058823529406,0.237908496732026,-0.091503267973856
10.0,-0.1647058823529406,0.1647058823529406,0.237908496732026,-0.091503267973856
19.0,-0.05490196078431353,0.1647058823529406,0.237908496732026,-0.091503267973856
29.0,-0.1647058823529406,0.1647058823529406,0.201307189542484,-0.091503267973856
39.0,-0.1647058823529406,0.1647058823529406,0.201307189542484,-0.091503267973856
49.0,-0.1647058823529406,0.1647058823529406,0.164705882352941,-0.091503267973856
58.0,-0.1647058823529406,0.05490196078431353,-0.054901960784314,-0.091503267973856
69.0,0.3843137254901965,0.1647058823529406,-0.091503267973856,-0.091503267973856
78.0,0.49411764705882355,0.1647058823529406,-0.311111111111111,-0.091503267973856
88.0,0.05490196078431353,0.1647058823529406,-0.457516339869281,-0.091503267973856
98.0,-0.6039215686274506,0.1647058823529406,-0.567320261437908,-0.128104575163399
107.0,-1.2627450980392165,0.1647058823529406,-0.823529411764706,-0.201307189542484
117.0,-2.0313725490196077,-0.05490196078431353,-1.88496732026144,-0.384313725490196
127.0,-2.6901960784313736,0.1647058823529406,-2.022875817,-0.603921568627453
137.0,-3.5686274509803937,-1.0431372549019606,-2.36078431372549,-1.37254901960784
146.0,-4.117647058823529,-1.8117647058823536,-3.12941176470588,-1.92156862745098
156.0,-4.886274509803922,-2.470588235294116,-4.0078431372549,-2.47058823529412
166.0,-5.654901960784315,-3.239215686274509,-4.73986928104575,-3.12941176470588
176.0,-6.20392156862745,-4.117647058823529,-5.50849673202614,-3.93464052287582
185.0,-6.862745098039216,-4.666666666666668,-6.20392156862745,-4.5202614379085
195.0,-7.521568627450982,-5.105882352941176,-7.00915032679739,-5.17908496732026
205.0,-7.850980392156863,-5.545098039215688,-7.4483660130719,-5.65490196078432
215.0,-8.070588235294117,-5.764705882352942,-7.63137254901961,-5.83790849673203
224.0,-8.070588235294117,-5.984313725490196,-7.66797385620915,-6.05751633986928
234.0,-8.070588235294117,-6.094117647058823,-7.66797385620915,-6.13071895424837
244.0,-8.180392156862744,-6.094117647058823,-7.74117647058824,-6.16732026143791
254.0,-8.180392156862744,-6.094117647058823,-7.74117647058823,-6.24052287581699
263.0,-8.180392156862744,-6.094117647058823,-7.74117647058823,-6.16732026143791
273.0,-8.180392156862744,-6.094117647058823,-7.81437908496732,-6.20392156862745
283.0,-8.290196078431372,-6.094117647058823,-7.88758169934641,-6.09411764705882
293.0,-8.399999999999999,-6.094117647058823,-7.99738562091503,-5.9843137254902
303.0,-8.50980392156863,-5.984313725490196,-8.25359477124183,-5.9843137254902
312.0,-8.729411764705883,-5.764705882352942,-8.43660130718954,-5.87450980392157
322.0,-9.168627450980392,-5.874509803921569,-8.72941176470588,-5.83790849673203
332.0,-9.388235294117646,-5.874509803921569,-9.09542483660131,-5.80130718954248
342.0,-9.827450980392157,-5.874509803921569,-9.35163398692811,-5.80130718954248
351.0,-10.266666666666666,-5.874509803921569,-9.75424836601307,-5.65490196078432
361.0,-10.48627450980392,-6.20392156862745,-10.2666666666667,-5.4718954248366
371.0,-11.035294117647059,-5.984313725490196,-10.7058823529412,-5.21568627450981
381.0,-11.584313725490198,-5.874509803921569,-11.1450980392157,-5.03267973856209
390.0,-11.803921568627452,-5.545098039215688,-11.5477124183006,-4.92287581699346
400.0,-11.913725490196079,-4.996078431372549,-11.8771241830066,-4.66666666666666
410.0,-11.913725490196079,-4.776470588235295,-11.9503267973856,-4.5202614379085
420.0,-11.913725490196079,-4.666666666666668,-11.9869281045752,-4.37385620915033
429.0,-11.913725490196079,-4.44705882352941,-11.9503267973856,-4.11764705882353
439.0,-11.913725490196079,-4.337254901960783,-11.8771241830065,-3.93464052287582
449.0,-11.913725490196079,-4.117647058823529,-11.7673202614379,-3.75163398692811
459.0,-11.803921568627452,-3.788235294117648,-11.6941176470588,-3.42222222222223
469.0,-11.803921568627452,-3.349019607843136,-11.5843137254902,-3.20261437908497
479.0,-11.694117647058825,-3.129411764705882,-11.4013071895425,-2.98300653594771
489.0,-11.584313725490198,-2.8000000000000007,-11.2549019607843,-2.72679738562091
499.0,-11.474509803921567,-4.556862745098041,-11.1450980392157,-2.32418300653595
508.0,-11.36470588235294,-2.0313725490196077,-10.962091503268,-1.8483660130719
519.0,-11.254901960784313,-1.3725490196078436,-10.8522875816993,-1.3359477124183
529.0,-11.145098039215686,-0.8235294117647065,-10.8156862745098,-0.75032679738562
548.0,-10.925490196078432,0.27450980392156943,-10.7424836601307,-0.018300653594771
557.0,-10.815686274509805,0.8235294117647065,-10.5960784313726,0.713725490196078
567.0,-10.815686274509805,1.4823529411764707,-10.5960784313726,1.44575163398693
577.0,-10.59607843137255,2.2509803921568636,-10.4862745098039,2.21437908496732
587.0,-10.48627450980392,2.9098039215686278,-10.4862745098039,2.98300653594771
596.0,-10.48627450980392,3.458823529411765,-10.3764705882353,3.75163398692811
605.0,-10.48627450980392,3.788235294117648,-10.3764705882353,4.22745098039216
615.0,-10.376470588235293,4.007843137254902,-10.3398692810458,4.55686274509804
625.0,-10.266666666666666,4.117647058823529,-10.2300653594771,4.7764705882353
635.0,-10.047058823529412,4.227450980392156,-9.93725490196078,4.95947712418301
644.0,-9.827450980392157,4.337254901960785,-9.82745098039216,5.03267973856209
655.0,-9.607843137254903,4.447058823529412,-9.68104575163399,5.06928104575163
665.0,-9.498039215686273,4.556862745098039,-9.38823529411765,5.10588235294118
674.0,-9.168627450980392,4.776470588235295,-9.16862745098039,5.124183007
684.0,-8.729411764705883,4.996078431372549,-8.98562091503268,5.14248366013072
694.0,-8.290196078431372,5.215686274509803,-8.72941176470588,5.54509803921569
704.0,-7.521568627450982,5.654901960784313,-8.54640522875817,5.91111111111111
713.0,-6.752941176470589,-2.0313725490196077,-8.25359477124183,6.16732026143791
723.0,-6.313725490196077,6.313725490196078,-7.96078431372549,6.53333333333333
734.0,-4.996078431372549,6.313725490196078,-7.33856209150327,6.97254901960784
743.0,-4.337254901960783,7.411764705882353,-6.49673202614379,7.41176470588236
753.0,-3.5686274509803937,7.850980392156862,-5.69150326797386,7.88758169934641
763.0,-3.019607843137255,8.509803921568627,-4.95947712418301,8.47320261437908
773.0,-2.470588235294116,8.949019607843137,-4.95947712418301,8.98562091503268
782.0,-2.0313725490196077,9.607843137254902,-3.49542483660131,9.49803921568627
792.0,-1.5921568627450977,10.047058823529412,-2.8,10.156862745098
803.0,-1.0431372549019606,10.266666666666666,-2.28758169934641,10.5960784313725
812.0,-0.8235294117647065,10.376470588235295,-1.77516339869281,10.9254901960784
822.0,-0.8235294117647065,10.486274509803922,-1.40915032679739,10.9986928104575
833.0,-0.7137254901960777,10.376470588235295,-1.0797385620915,11.0718954248366
842.0,-0.7137254901960777,10.266666666666666,-0.969934640522878,11.0718954248366
852.0,-0.7137254901960777,10.376470588235295,-0.86013071895425,11.1450980392157
862.0,-0.49411764705882355,10.376470588235295,-0.713725490196078,11.0718954248366
872.0,-0.3843137254901965,10.376470588235295,-0.677124183006536,11.1084967320261
881.0,0.1647058823529406,10.486274509803922,-0.494117647058823,11.1084967320261
890.0,0.8235294117647065,10.486274509803922,-0.274509803921568,11.0718954248366
900.0,1.4823529411764707,10.486274509803922,0.091503267973857,11.1450980392157
909.0,2.2509803921568636,10.486274509803922,0.567320261437909,11.1450980392157
920.0,3.129411764705882,10.486274509803922,1.29934640522876,11.1084967320261
929.0,3.788235294117648,10.486274509803922,1.95816993464052,11.1450980392157
939.0,4.666666666666666,10.596078431372549,2.76339869281045,11.1450980392157
948.0,5.435294117647059,10.596078431372549,3.56862745098039,11.1816993464052
958.0,5.984313725490196,10.596078431372549,4.44705882352941,11.1816993464052
968.0,6.533333333333333,10.596078431372549,5.25228758169935,11.1816993464052
978.0,7.411764705882353,10.596078431372549,6.16732026143791,11.1450980392157
988.0,7.850980392156862,10.596078431372549,6.75294117647059,11.1450980392157
997.0,7.96078431372549,10.596078431372549,7.11895424836601,11.1816993464052
1007.0,7.96078431372549,10.596078431372549,7.26535947712418,11.0718954248366
1017.0,7.96078431372549,10.596078431372549,7.22875816993464,11.1450980392157
1027.0,7.96078431372549,10.596078431372549,7.26535947712418,11.0718954248366
1047.0,8.070588235294117,10.596078431372549,7.30196078431373,11.0352941176471
1057.0,8.180392156862744,10.486274509803922,7.33856209150327,11.0352941176471
1066.0,8.290196078431372,10.486274509803922,7.30196078431373,10.962091503268
1076.0,8.619607843137254,10.486274509803922,7.37516339869281,10.8522875816994
1085.0,8.949019607843137,10.376470588235295,7.55816993464053,10.7790849673203
1096.0,9.058823529411764,10.486274509803922,7.81437908496732,10.7058823529412
1106.0,9.388235294117647,10.486274509803922,8.14379085,10.5960784313725
1114.0,9.937254901960785,10.596078431372549,8.47320261437908,10.4862745098039
1123.0,10.156862745098039,10.486274509803922,9.02222222222222,10.1202614379085
1133.0,10.596078431372549,10.376470588235295,9.42483660130719,9.64444444444444
1142.0,11.035294117647059,10.156862745098039,9.97385620915031,8.94901960784314
1152.0,11.474509803921569,9.498039215686275,10.3398692810458,8.4
1162.0,11.803921568627452,8.180392156862744,10.8888888888889,7.77777777777778
1173.0,12.352941176470589,6.533333333333333,11.5843137254902,7.04575163398693
1183.0,12.572549019607843,5.984313725490196,12.2065359477124,6.38692810457516
1193.0,12.572549019607843,5.545098039215686,12.9751633986928,5.69150326797386
1202.0,12.572549019607843,5.215686274509803,13.3777777777778,5.21568627450981
1212.0,12.572549019607843,4.886274509803922,13.4509803921569,4.81307189542484
1222.0,12.572549019607843,4.886274509803922,13.3777777777778,4.63006535947712
1232.0,12.572549019607843,4.776470588235295,13.3411764705882,4.44705882352941
1241.0,12.572549019607843,4.776470588235295,13.3777777777778,4.30065359477124
1251.0,12.572549019607843,4.886274509803922,13.2679738562092,4.04444444444445
1261.0,12.572549019607843,4.776470588235295,13.2313725490196,4.0078431372549
1271.0,12.572549019607843,3.898039215686275,13.1581699346405,3.97124183006536
1281.0,12.572549019607843,2.9098039215686278,13.0483660130719,3.97124183006536
1290.0,12.572549019607843,2.690196078431372,12.9385620915033,3.89803921568627
1300.0,12.572549019607843,2.3607843137254907,12.9019607843137,2.87320261437909
1310.0,12.572549019607843,1.8117647058823536,12.609150327,2.94640522875817
1320.0,12.572549019607843,1.0431372549019606,12.3163398692811,2.65359477124183
1329.0,12.572549019607843,0.49411764705882355,12.2797385620915,2.14117647058824
1339.0,12.572549019607843,-0.05490196078431353,12.1699346405229,1.26274509803922
1350.0,12.462745098039216,-0.8235294117647065,12.0235294117647,0.530718954248366
1360.0,12.462745098039216,-1.5921568627450977,11.7307189542484,-0.384313725490196
1368.0,12.133333333333333,-2.360784313725489,11.4745098039216,-1.26274509803922
1377.0,11.803921568627452,-2.6901960784313736,11.2183006535948,-2.10457516339869
1387.0,11.694117647058825,-3.019607843137255,10.9986928104575,-2.94640522875817
1396.0,11.584313725490196,-3.458823529411763,10.8156862745098,-3.60522875816994
1407.0,11.474509803921569,-3.898039215686275,10.7424836601307,-3.86143790849673
1416.0,11.364705882352942,-4.227450980392156,10.6692810457516,-4.22745098039216
1426.0,11.145098039215686,-4.337254901960783,10.559477124183,-4.48366013071895
1437.0,10.925490196078432,-4.44705882352941,10.3764705882353,-4.63006535947712
1446.0,10.925490196078432,-4.44705882352941,10.1934640522876,-4.92287581699347
1457.0,10.486274509803922,-4.666666666666668,9.93725490196077,-5.03267973856209
1465.0,9.937254901960785,-4.776470588235295,9.71764705882353,-5.14248366013072
1476.0,9.388235294117647,-4.996078431372549,9.3516339869281,-5.17908496732026
1485.0,8.83921568627451,-5.435294117647057,8.87581699346405,-5.36209150326797
1495.0,7.96078431372549,-5.764705882352942,8.43660130718954,-5.54509803921569
1504.0,7.192156862745098,-6.094117647058823,7.96078431372549,-5.69150326797386
1515.0,6.533333333333333,-6.533333333333335,7.22875816993464,-5.9843137254902
1525.0,5.764705882352942,-7.08235294117647,6.53333333333334,-6.38692810457516
1535.0,4.886274509803922,-7.741176470588236,5.9843137254902,-6.6797385620915
1545.0,4.227450980392156,-8.180392156862744,4.92287581699347,-7.11895424836601
1555.0,3.349019607843138,-8.729411764705883,4.44705882352941,-7.63137254901961
1564.0,2.580392156862745,-9.278431372549019,3.93464052287582,-8.07058823529412
1574.0,1.9215686274509807,-9.71764705882353,3.23921568627451,-8.61960784313725
1584.0,1.5921568627450977,-10.156862745098039,2.65359477124183,-9.13202614379085
1593.0,1.2627450980392165,-10.156862745098039,2.10457516339869,-9.64444444444444
1604.0,1.1529411764705877,-10.266666666666666,1.92156862745098,-9.82745098039216
1613.0,1.0431372549019606,-10.266666666666666,1.701960784,-9.97385620915032
1623.0,1.0431372549019606,-10.376470588235293,1.48235294117647,-10.0104575163399
1633.0,-0.49411764705882355,-10.266666666666666,1.0797385620915,-10.0470588235294
1641.0,-0.7137254901960777,-10.047058823529412,0.786928104575164,-9.97385620915032
1650.0,-0.8235294117647065,-10.266666666666666,0.677124183006537,-10.0470588235294
1660.0,-1.1529411764705877,-10.266666666666666,0.457516339869282,-9.97385620915032
1670.0,-1.4823529411764707,-10.266666666666666,0.128104575163399,-10.0104575163399
1680.0,-1.9215686274509807,-10.266666666666666,-0.384313725490196,-10.0470588235294
1690.0,-2.250980392156862,-10.266666666666666,-0.786928104575163,-10.0104575163399
1700.0,-2.8000000000000007,-10.376470588235293,-1.40915032679738,-10.083660130719
1711.0,-3.5686274509803937,-10.266666666666666,-2.03137254901961,-10.083660130719
1720.0,-4.007843137254902,-10.376470588235293,-2.8,-10.083660130719
1729.0,-4.776470588235295,-10.266666666666666,-3.53202614379085,-10.0470588235294
1739.0,-5.435294117647057,-10.266666666666666,-4.19084967320261,-10.083660130719
1749.0,-6.094117647058823,-10.376470588235293,-4.88627450980393,-10.083660130719
1758.0,-6.643137254901962,-10.266666666666666,-5.65490196078431,-10.0104575163399
1769.0,-7.08235294117647,-10.376470588235293,-6.35032679738562,-10.083660130719
1779.0,-7.192156862745097,-10.266666666666666,-6.9359477124183,-10.0104575163399
1788.0,-7.301960784313724,-10.376470588235293,-7.48496732026144,-10.083660130719
1798.0,-7.301960784313724,-10.266666666666666,-7.52156862745098,-10.0470588235294
1809.0,-7.301960784313724,-10.266666666666666,-7.55816993464052,-10.083660130719
1816.0,-7.192156862745097,-10.266666666666666,-7.48496732026144,-10.0470588235294
1826.0,-6.862745098039216,-10.156862745098039,-7.33856209150327,-10.0470588235294
1836.0,-6.423529411764704,-9.827450980392157,-7.1921568627451,-10.0470588235294
1846.0,-5.984313725490196,-9.607843137254903,-6.9359477124183,-10.0104575163399
1855.0,-5.545098039215688,-9.278431372549019,-6.75294117647059,-9.93725490196078
1865.0,-4.886274509803922,-9.168627450980392,-6.46013071895425,-9.8640522875817
1876.0,-4.117647058823529,-9.168627450980392,-6.35032679738562,-9.75424836601307
1886.0,-3.349019607843136,-9.058823529411764,-6.24052287581699,-9.64444444444444
1896.0,-2.360784313725489,-8.949019607843137,-5.98431372549019,-9.49803921568627
1906.0,-1.2627450980392165,-8.949019607843137,-5.58169934640523,-9.31503267973856
1915.0,-1.0431372549019606,-8.619607843137256,-4.95947712418301,-9.31503267973856
1925.0,-0.9333333333333336,-8.399999999999999,-4.30065359477124,-9.05882352941176
